# GratingFile ; number of gratings: 1
# First Grating Parameters: 2 slits, uniform spacing, 50 point sources.
# other Params(nm): 0.56 wavelength, 10000000.0 between gratings.
# Time Taken: 1.9317512512207031 seconds
# Observing Position (nm)			 Intensity (Un-normalized)
0.0				4.8734e-17
10010.01001				1.16275e-17
20020.02002				1.04067e-18
30030.03003				3.27655e-21
40040.04004				7.23864e-20
50050.0500501				3.76763e-18
60060.0600601				2.36653e-17
70070.0700701				7.83635e-17
80080.0800801				1.86279e-16
90090.0900901				3.58784e-16
100100.1001				5.94411e-16
110110.11011				8.75702e-16
120120.12012				1.16975e-15
130130.13013				1.43272e-15
140140.14014				1.61771e-15
150150.15015				1.68462e-15
160160.16016				1.61002e-15
170170.17017				1.39494e-15
180180.18018				1.06861e-15
190190.19019				6.8719e-16
200200.2002				3.26951e-16
210210.21021				7.28761e-17
220220.22022				4.41039e-18
230230.23023				1.80772e-16
240240.24024				6.28509e-16
250250.25025				1.33373e-15
260260.26026				2.2407e-15
270270.27027				3.25748e-15
280280.28028				4.26785e-15
290290.29029				5.14804e-15
300300.3003				5.78525e-15
310310.31031				6.09517e-15
320320.32032				6.03536e-15
330330.33033				5.61228e-15
340340.34034				4.88057e-15
350350.35035				3.93485e-15
360360.36036				2.89516e-15
370370.37037				1.8887e-15
380380.38038				1.03075e-15
390390.39039				4.08106e-16
400400.4004				6.75739e-17
410410.41041				1.13757e-17
420420.42042				1.99933e-16
430430.43043				5.61263e-16
440440.44044				1.00506e-15
450450.45045				1.43881e-15
460460.46046				1.78299e-15
470470.47047				1.98281e-15
480480.48048				2.01461e-15
490490.49049				1.88614e-15
500500.500501				1.63116e-15
510510.510511				1.29998e-15
520520.520521				9.47802e-16
530530.530531				6.23651e-16
540540.540541				3.61923e-16
550550.550551				1.78082e-16
560560.560561				6.91033e-17
570570.570571				1.81544e-17
580580.580581				2.1228e-18
590590.590591				9.39082e-21
600600.600601				7.04761e-20
610610.610611				3.92655e-18
620620.620621				2.6581e-17
630630.630631				9.22658e-17
640640.640641				2.27035e-16
650650.650651				4.49834e-16
660660.660661				7.64247e-16
670670.670671				1.15306e-15
680680.680681				1.57733e-15
690690.690691				1.98062e-15
700700.700701				2.29815e-15
710710.710711				2.46925e-15
720720.720721				2.4509e-15
730730.730731				2.2294e-15
740740.740741				1.82785e-15
750750.750751				1.30706e-15
760760.760761				7.59466e-16
770770.770771				2.9625e-16
780780.780781				2.96882e-17
790790.790791				5.35674e-17
800800.800801				4.2515e-16
810810.810811				1.15206e-15
820820.820821				2.18673e-15
830830.830831				3.42992e-15
840840.840841				4.74299e-15
850850.850851				5.96735e-15
860860.860861				6.94799e-15
870870.870871				7.55714e-15
880880.880881				7.71421e-15
890890.890891				7.39843e-15
900900.900901				6.65219e-15
910910.910911				5.57429e-15
920920.920921				4.30436e-15
930930.930931				3.00112e-15
940940.940941				1.81809e-15
950950.950951				8.80929e-16
960960.960961				2.70133e-16
970970.970971				1.18001e-17
980980.980981				7.77076e-17
990990.990991				3.9427e-16
1001001.001				8.58385e-16
1011011.01101				1.35703e-15
1021021.02102				1.78692e-15
1031031.03103				2.07082e-15
1041041.04104				2.16761e-15
1051051.05105				2.075e-15
1061061.06106				1.82474e-15
1071071.07107				1.47205e-15
1081081.08108				1.08164e-15
1091091.09109				7.13679e-16
1101101.1011				4.12384e-16
1111111.11111				1.99579e-16
1121121.12112				7.41757e-17
1131131.13113				1.72513e-17
1141141.14114				1.1494e-18
1151151.15115				1.59685e-19
1161161.16116				1.55384e-20
1171171.17117				3.76036e-18
1181181.18118				3.23924e-17
1191191.19119				1.19931e-16
1201201.2012				3.03886e-16
1211211.21121				6.13276e-16
1221221.22122				1.05704e-15
1231231.23123				1.6158e-15
1241241.24124				2.2394e-15
1251251.25125				2.85142e-15
1261261.26126				3.36059e-15
1271271.27127				3.6773e-15
1281281.28128				3.73226e-15
1291291.29129				3.4936e-15
1301301.3013				2.97877e-15
1311311.31131				2.25825e-15
1321321.32132				1.44953e-15
1331331.33133				7.01691e-16
1341341.34134				1.72582e-16
1351351.35135				2.32521e-18
1361361.36136				2.87711e-16
1371371.37137				1.06216e-15
1381381.38138				2.28518e-15
1391391.39139				3.84368e-15
1401401.4014				5.56551e-15
1411411.41141				7.24336e-15
1421421.42142				8.6653e-15
1431431.43143				9.64698e-15
1441441.44144				1.006e-14
1451451.45145				9.85192e-15
1461461.46146				9.05362e-15
1471471.47147				7.77426e-15
1481481.48148				6.18317e-15
1491491.49149				4.4828e-15
1501501.5015				2.87722e-15
1511511.51151				1.54132e-15
1521521.52152				5.96224e-16
1531531.53153				9.45664e-17
1541541.54154				1.79078e-17
1551551.55155				2.8605e-16
1561561.56156				7.7603e-16
1571571.57157				1.34686e-15
1581581.58158				1.86525e-15
1591591.59159				2.22762e-15
1601601.6016				2.37455e-15
1611611.61161				2.29567e-15
1621621.62162				2.02477e-15
1631631.63163				1.62688e-15
1641641.64164				1.18073e-15
1651651.65165				7.60458e-16
1661661.66166				4.20635e-16
1671671.67167				1.8758e-16
1681681.68168				5.84717e-17
1691691.69169				7.95028e-18
1701701.7017				1.66297e-19
1711711.71171				3.05502e-18
1721721.72172				1.08328e-18
1731731.73173				3.09024e-18
1741741.74174				4.29713e-17
1751751.75175				1.72629e-16
1761761.76176				4.48461e-16
1771771.77177				9.14309e-16
1781781.78178				1.58481e-15
1791791.79179				2.43334e-15
1801801.8018				3.38797e-15
1811811.81181				4.33741e-15
1821821.82182				5.14684e-15
1831831.83183				5.68126e-15
1841841.84184				5.83246e-15
1851851.85185				5.54416e-15
1861861.86186				4.83031e-15
1871871.87187				3.78188e-15
1881881.88188				2.5601e-15
1891891.89189				1.37583e-15
1901901.9019				4.58102e-16
1911911.91191				1.65355e-17
1921921.92192				2.04271e-16
1931931.93193				1.08793e-15
1941941.94194				2.63045e-15
1951951.95195				4.69042e-15
1961961.96196				7.03879e-15
1971971.97197				9.39073e-15
1981981.98198				1.14476e-14
1991991.99199				1.29424e-14
2002002.002				1.36804e-14
2012012.01201				1.35691e-14
2022022.02202				1.26314e-14
2032032.03203				1.10005e-14
2042042.04204				8.89674e-15
2052052.05205				6.59216e-15
2062062.06206				4.36664e-15
2072072.07207				2.46543e-15
2082082.08208				1.06402e-15
2092092.09209				2.46456e-16
2102102.1021				1.71995e-19
2112112.11211				2.27431e-16
2122122.12212				7.70317e-16
2132132.13213				1.44406e-15
2142142.14214				2.07204e-15
2152152.15215				2.51596e-15
2162162.16216				2.69582e-15
2172172.17217				2.59677e-15
2182182.18218				2.26249e-15
2192192.19219				1.77762e-15
2202202.2022				1.24378e-15
2212212.21221				7.54859e-16
2222222.22222				3.76998e-16
2232232.23223				1.37598e-16
2242242.24224				2.52403e-17
2252252.25225				2.70235e-20
2262262.26226				1.13317e-17
2272272.27227				1.82193e-17
2282282.28228				7.14995e-18
2292292.29229				2.12877e-18
2302302.3023				6.41556e-17
2312312.31231				2.79298e-16
2322322.32232				7.37432e-16
2332332.33233				1.50608e-15
2342342.34234				2.60531e-15
2352352.35235				3.98985e-15
2362362.36236				5.54366e-15
2372372.37237				7.08965e-15
2382382.38238				8.41436e-15
2392392.39239				9.30417e-15
2402402.4024				9.5867e-15
2412412.41241				9.16961e-15
2422422.42242				8.06877e-15
2432432.43243				6.41915e-15
2442442.44244				4.4649e-15
2452452.45245				2.52841e-15
2462462.46246				9.62662e-16
2472472.47247				9.42307e-17
2482482.48248				1.66598e-16
2492492.49249				1.29395e-15
2502502.5025				3.43417e-15
2512512.51251				6.38667e-15
2522522.52252				9.81647e-15
2532532.53253				1.33012e-14
2542542.54254				1.63939e-14
2552552.55255				1.86908e-14
2562562.56256				1.98929e-14
2572572.57257				1.98516e-14
2582582.58258				1.85888e-14
2592592.59259				1.62906e-14
2602602.6026				1.32739e-14
2612612.61261				9.93336e-15
2622622.62262				6.6776e-15
2632632.63263				3.86597e-15
2642642.64264				1.75679e-15
2652652.65265				4.75506e-16
2662662.66266				7.28746e-18
2672672.67267				2.14131e-16
2682682.68268				8.71903e-16
2692692.69269				1.7193e-15
2702702.7027				2.50887e-15
2712712.71271				3.0503e-15
2722722.72272				3.2383e-15
2732732.73273				3.06074e-15
2742742.74274				2.58705e-15
2752752.75275				1.94092e-15
2762762.76276				1.26437e-15
2772772.77277				6.81817e-16
2782782.78278				2.72425e-16
2792792.79279				5.67022e-17
2802802.8028				6.25809e-21
2812812.81281				3.14923e-17
2822822.82282				7.33769e-17
2832832.83283				7.28512e-17
2842842.84284				2.8139e-17
2852852.85285				1.32572e-18
2862862.86286				1.13438e-16
2872872.87287				5.21309e-16
2882882.88288				1.38011e-15
2892892.89289				2.79917e-15
2902902.9029				4.801e-15
2912912.91291				7.29354e-15
2922922.92292				1.00639e-14
2932932.93293				1.27974e-14
2942942.94294				1.51217e-14
2952952.95295				1.6669e-14
2962962.96296				1.71464e-14
2972972.97297				1.64003e-14
2982982.98298				1.44629e-14
2992992.99299				1.15687e-14
3003003.003				8.13623e-15
3013013.01301				4.71466e-15
3023023.02302				1.90298e-15
3033033.03303				2.53973e-16
3043043.04304				1.79535e-16
3053053.05305				1.87397e-15
3063063.06306				5.26973e-15
3073073.07307				1.00349e-14
3083083.08308				1.56141e-14
3093093.09309				2.13078e-14
3103103.1031				2.63764e-14
3113113.11311				3.01536e-14
3123123.12312				3.21475e-14
3133133.13313				3.21147e-14
3143143.14314				3.00929e-14
3153153.15315				2.63886e-14
3163163.16316				2.15204e-14
3173173.17317				1.6131e-14
3183183.18318				1.08813e-14
3193193.19319				6.34756e-15
3203203.2032				2.93811e-15
3213213.21321				8.43505e-16
3223223.22322				2.78165e-17
3233233.23323				2.59776e-16
3243243.24324				1.176e-15
3253253.25325				2.36229e-15
3263263.26326				3.43651e-15
3273273.27327				4.11669e-15
3283283.28328				4.26217e-15
3293293.29329				3.88136e-15
3303303.3033				3.1071e-15
3313313.31331				2.14729e-15
3323323.32332				1.22372e-15
3333333.33333				5.13782e-16
3343343.34334				1.09104e-16
3353353.35335				4.06642e-19
3363363.36336				9.20198e-17
3373373.37337				2.42075e-16
3383383.38338				3.18171e-16
3393393.39339				2.54159e-16
3403403.4034				9.27453e-17
3413413.41341				1.17673e-18
3423423.42342				2.52944e-16
3433433.43343				1.17605e-15
3443443.44344				3.07641e-15
3453453.45345				6.15167e-15
3463463.46346				1.04144e-14
3473473.47347				1.56437e-14
3483483.48348				2.13796e-14
3493493.49349				2.6968e-14
3503503.5035				3.1652e-14
3513513.51351				3.46977e-14
3523523.52352				3.55327e-14
3533533.53353				3.38718e-14
3543543.54354				2.98042e-14
3553553.55355				2.38216e-14
3563563.56356				1.6777e-14
3573573.57357				9.7756e-15
3583583.58358				4.01292e-15
3593593.59359				5.841e-16
3603603.6036				2.97845e-16
3613613.61361				3.5272e-15
3623623.62362				1.01253e-14
3633633.63363				1.94235e-14
3643643.64364				3.0316e-14
3653653.65365				4.1418e-14
3663663.66366				5.12736e-14
3673673.67367				5.85784e-14
3683683.68368				6.23788e-14
3693693.69369				6.22146e-14
3703703.7037				5.81805e-14
3713713.71371				5.0896e-14
3723723.72372				4.13912e-14
3733733.73373				3.09283e-14
3743743.74374				2.07928e-14
3753753.75375				1.20904e-14
3763763.76376				5.58608e-15
3773773.77377				1.61253e-15
3783783.78378				5.99341e-17
3793793.79379				4.45927e-16
3803803.8038				2.04742e-15
3813813.81381				4.06556e-15
3823823.82382				5.78954e-15
3833833.83383				6.72651e-15
3843843.84384				6.67323e-15
3853853.85385				5.71822e-15
3863863.86386				4.17823e-15
3873873.87387				2.48746e-15
3883883.88388				1.06769e-15
3893893.89389				2.11657e-16
3903903.9039				8.57355e-18
3913913.91391				3.30771e-16
3923923.92392				8.85975e-16
3933933.93393				1.32378e-15
3943943.94394				1.37092e-15
3953953.95395				9.61078e-16
3963963.96396				3.23786e-16
3973973.97397				3.65954e-18
3983983.98398				7.95174e-16
3993993.99399				3.59672e-15
4004004.004				9.20696e-15
4014014.01401				1.81024e-14
4024024.02402				3.02444e-14
4034034.03403				4.49624e-14
4044044.04404				6.09507e-14
4054054.05405				7.63954e-14
4064064.06406				8.92234e-14
4074074.07407				9.74403e-14
4084084.08408				9.95018e-14
4094094.09409				9.46512e-14
4104104.1041				8.31543e-14
4114114.11411				6.63795e-14
4124124.12412				4.66893e-14
4134134.13413				2.71491e-14
4144144.14414				1.10868e-14
4154154.15415				1.57109e-15
4164164.16416				8.92936e-16
4174174.17417				1.01425e-14
4184184.18418				2.89593e-14
4194194.19419				5.55083e-14
4204204.2042				8.66978e-14
4214214.21421				1.18611e-13
4224224.22422				1.47085e-13
4234234.23423				1.68346e-13
4244244.24424				1.7959e-13
4254254.25425				1.7941e-13
4264264.26426				1.68001e-13
4274274.27427				1.47095e-13
4284284.28428				1.19648e-13
4294294.29429				8.93329e-14
4304304.3043				5.99215e-14
4314314.31431				3.46801e-14
4324324.32432				1.5875e-14
4334334.33433				4.48106e-15
4344344.34434				1.39335e-16
4354354.35435				1.36262e-15
4364364.36436				5.94067e-15
4374374.37437				1.1457e-14
4384384.38438				1.58081e-14
4394394.39439				1.7618e-14
4404404.4044				1.64612e-14
4414414.41441				1.28535e-14
4424424.42442				8.01601e-15
4434434.43443				3.47366e-15
4444444.44444				5.86974e-16
4454454.45445				1.34848e-16
4464464.46446				2.06095e-15
4474474.47447				5.46303e-15
4484484.48448				8.85152e-15
4494494.49449				1.06402e-14
4504504.5045				9.76991e-15
4514514.51451				6.32222e-15
4524524.52452				1.95963e-15
4534534.53453				4.83007e-17
4544544.54454				5.36734e-15
4554554.55455				2.33884e-14
4564564.56456				5.92021e-14
4574574.57457				1.16256e-13
4584584.58458				1.95143e-13
4594594.59459				2.92694e-13
4604604.6046				4.01635e-13
4614614.61461				5.10972e-13
4624624.62462				6.0717e-13
4634634.63463				6.76046e-13
4644644.64464				7.05147e-13
4654654.65465				6.86267e-13
4664664.66466				6.17672e-13
4674674.67467				5.05599e-13
4684684.68468				3.64663e-13
4694694.69469				2.16939e-13
4704704.7047				8.96802e-14
4714714.71471				1.18824e-14
4724724.72472				1.0076e-14
4734734.73473				1.03944e-13
4744744.74474				3.0243e-13
4754754.75475				6.01007e-13
4764764.76476				9.80653e-13
4774774.77477				1.40888e-12
4784784.78478				1.84284e-12
4794794.79479				2.23431e-12
4804804.8048				2.53584e-12
4814814.81481				2.70744e-12
4824824.82482				2.72272e-12
4834834.83483				2.5736e-12
4844844.84484				2.27281e-12
4854854.85485				1.85366e-12
4864864.86486				1.36691e-12
4874874.87487				8.7504e-13
4884884.88488				4.44637e-13
4894894.89489				1.37709e-13
4904904.9049				3.27197e-15
4914914.91491				7.0295e-14
4924924.92492				3.43061e-13
4934934.93493				7.99676e-13
4944944.94494				1.39404e-12
4954954.95495				2.0611e-12
4964964.96496				2.72476e-12
4974974.97497				3.30742e-12
4984984.98498				3.73989e-12
4994994.99499				3.97031e-12
5005005.00501				3.97089e-12
5015015.01502				3.74158e-12
5025025.02503				3.31001e-12
5035035.03504				2.72794e-12
5045045.04505				2.06449e-12
5055055.05506				1.39725e-12
5065065.06507				8.0235e-13
5075075.07508				3.44914e-13
5085085.08509				7.11536e-14
5095095.0951				3.09177e-15
5105105.10511				1.36575e-13
5115115.11512				4.4275e-13
5125125.12513				8.72683e-13
5135135.13514				1.36441e-12
5145145.14515				1.85135e-12
5155155.15516				2.27098e-12
5165165.16517				2.57246e-12
5175175.17518				2.72238e-12
5185185.18519				2.70792e-12
5195195.1952				2.53705e-12
5205205.20521				2.23608e-12
5215215.21522				1.84495e-12
5225225.22523				1.41107e-12
5235235.23524				9.82704e-13
5245245.24525				6.02723e-13
5255255.25526				3.03682e-13
5265265.26527				1.04673e-13
5275275.27528				1.02946e-14
5285285.28529				1.16646e-14
5295295.2953				8.91449e-14
5305305.30531				2.16228e-13
5315315.31532				3.63921e-13
5325325.32533				5.04951e-13
5335335.33534				6.17211e-13
5345345.34535				6.86046e-13
5355355.35536				7.05176e-13
5365365.36537				6.76299e-13
5375375.37538				6.07594e-13
5385385.38539				5.11497e-13
5395395.3954				4.0219e-13
5405405.40541				2.93217e-13
5415415.41542				1.95588e-13
5425425.42543				1.16597e-13
5435435.43544				5.94324e-14
5445445.44545				2.35193e-14
5455455.45546				5.4212e-15
5465465.46547				5.24801e-17
5475475.47548				1.94051e-15
5485485.48549				6.30059e-15
5495495.4955				9.75842e-15
5505505.50551				1.06429e-14
5515515.51552				8.86564e-15
5525525.52553				5.48136e-15
5535535.53554				2.07534e-15
5545545.54555				1.38979e-16
5555555.55556				5.7834e-16
5565565.56557				3.45417e-15
5575575.57558				7.9913e-15
5585585.58559				1.28312e-14
5595595.5956				1.64485e-14
5605605.60561				1.76195e-14
5615615.61562				1.58242e-14
5625625.62563				1.14831e-14
5635635.63564				5.96785e-15
5645645.64565				1.37916e-15
5655655.65566				1.33235e-16
5665665.66567				4.44268e-15
5675675.67568				1.57994e-14
5685685.68569				3.45688e-14
5695695.6957				5.97826e-14
5705705.70571				8.91807e-14
5715715.71572				1.19501e-13
5725725.72573				1.46971e-13
5735735.73574				1.67918e-13
5745745.74575				1.7938e-13
5755755.75576				1.79618e-13
5765765.76577				1.68429e-13
5775775.77578				1.47212e-13
5785785.78579				1.18765e-13
5795795.7958				8.68589e-14
5805805.80581				5.56556e-14
5815815.81582				2.90748e-14
5825825.82583				1.02137e-14
5835835.83584				9.14141e-16
5845845.84585				1.54428e-15
5855855.85586				1.10207e-14
5865865.86587				2.70574e-14
5875875.87588				4.65885e-14
5885885.88589				6.6286e-14
5895895.8959				8.30821e-14
5905905.90591				9.46096e-14
5915915.91592				9.9495e-14
5925925.92593				9.74669e-14
5935935.93594				8.92774e-14
5945945.94595				7.64677e-14
5955955.95596				6.10309e-14
5965965.96597				4.50405e-14
5975975.97598				3.03124e-14
5985985.98599				1.81553e-14
5995995.996				9.24302e-15
6006006.00601				3.6172e-15
6016016.01602				8.0343e-16
6026026.02603				4.11573e-18
6036036.03604				3.20823e-16
6046046.04605				9.58134e-16
6056056.05606				1.36995e-15
6066066.06607				1.32515e-15
6076076.07608				8.88736e-16
6086086.08609				3.33254e-16
6096096.0961				9.06646e-18
6106106.10611				2.09039e-16
6116116.11612				1.06185e-15
6126126.12613				2.47938e-15
6136136.13614				4.16978e-15
6146146.14615				5.71165e-15
6156156.15616				6.67052e-15
6166166.16617				6.72875e-15
6176176.17618				5.79648e-15
6186186.18619				4.07542e-15
6196196.1962				2.05712e-15
6206206.20621				4.51569e-16
6216216.21622				5.75727e-17
6226226.22623				1.59902e-15
6236236.23624				5.55986e-15
6246246.24625				1.2052e-14
6256256.25626				2.0745e-14
6266266.26627				3.08759e-14
6276276.27628				4.13402e-14
6286286.28629				5.0853e-14
6296296.2963				5.81515e-14
6306306.30631				6.22038e-14
6316316.31632				6.2388e-14
6326326.32633				5.86067e-14
6336336.33634				5.13174e-14
6346346.34635				4.14715e-14
6356356.35636				3.03722e-14
6366366.36637				1.9475e-14
6376376.37638				1.01658e-14
6386386.38639				3.55213e-15
6396396.3964				3.05138e-16
6406406.40641				5.74349e-16
6416416.41642				3.98918e-15
6426426.42643				9.74275e-15
6436436.43644				1.67409e-14
6446446.44645				2.37882e-14
6456456.45646				2.97785e-14
6466466.46647				3.38572e-14
6476476.47648				3.55307e-14
6486486.48649				3.47077e-14
6496496.4965				3.16719e-14
6506506.50651				2.69943e-14
6516516.51652				2.14085e-14
6526526.52653				1.56715e-14
6536536.53654				1.04384e-14
6546546.54655				6.1701e-15
6556556.55656				3.08876e-15
6566566.56657				1.18289e-15
6576576.57658				2.55609e-16
6586586.58659				1.31958e-18
6596596.5966				9.19246e-17
6606606.60661				2.53507e-16
6616616.61662				3.18214e-16
6626626.62663				2.4273e-16
6636636.63664				9.27481e-17
6646646.64665				4.73858e-19
6656656.65666				1.07874e-16
6666666.66667				5.10967e-16
6676676.67668				1.21952e-15
6686686.68669				2.14242e-15
6696696.6967				3.10258e-15
6706706.70671				3.87832e-15
6716716.71672				4.26151e-15
6726726.72673				4.1188e-15
6736736.73674				3.44107e-15
6746746.74675				2.36823e-15
6756756.75676				1.1816e-15
6766766.76677				2.6299e-16
6776776.77678				2.6632e-17
6786786.78679				8.36373e-16
6796796.7968				2.92431e-15
6806806.80681				6.32748e-15
6816816.81682				1.08564e-14
6826826.82683				1.61039e-14
6836836.83684				2.14942e-14
6846846.84685				2.63667e-14
6856856.85686				3.00782e-14
6866866.86687				3.21093e-14
